index,case-name,Porosity,Eff. Porosity,K(x)[D],K(y)[D],K(z)[D],M. time[s],S. Time[s]
0,1.0,0.193009481,0.191142272,2.4459999999999997,0.6735,1.6562,221.0,50.0
2,3.0,0.22593451899999997,0.222174145,3.4934,2.0561,3.3575,227.0,53.0
4,5.0,0.254325333,0.25291827100000003,3.6061,2.6663,3.2796,265.0,57.0
6,7.0,0.230392,0.22459704100000003,1.6612,2.4285,2.2559,231.0,50.0
8,9.0,0.190241778,0.187492254,0.8634,1.1048,1.2138,216.0,47.0
10,11.0,0.202258963,0.200400555,2.2887,1.1661,1.3161,204.0,47.0
12,13.0,0.21359229600000001,0.212264234,2.445,4.1813,1.5317,220.0,48.0
14,15.0,0.21839525899999998,0.216979027,2.3116,4.7978,1.4325,221.0,49.0
16,17.0,0.231865778,0.22926480899999999,1.0347,4.7191,0.893,256.0,55.0
18,19.0,0.252805926,0.247928046,1.8816,4.1773,2.0382,283.0,57.0
20,21.0,0.267223704,0.264350889,2.8589,4.5728,2.5566,304.0,61.0
22,23.0,0.247946074,0.246234035,2.8589,4.6944,2.1934,297.0,60.0
24,25.0,0.214493037,0.210404516,3.5215,2.5141,2.2604,222.0,48.0
26,27.0,0.25389007399999997,0.25190164,4.2901,4.6941,3.5079,260.0,56.0
29,31.0,0.221752593,0.21764409199999998,1.3531,2.1395,2.0616,229.0,53.0
31,33.0,0.17807288899999998,0.171663939,0.522,1.4554,0.9333,199.0,44.0
35,37.0,0.21378340699999998,0.21009213699999998,2.1358,5.8202,2.0497,229.0,49.0
37,39.0,0.229530963,0.226589995,2.2034,3.8714,2.1504,233.0,54.0
41,43.0,0.252575704,0.251884845,3.2208,3.9269,2.3644,291.0,60.0
43,45.0,0.273409185,0.271559115,3.6678,5.0912,3.3617,296.0,62.0
45,47.0,0.219882667,0.218519648,3.5776,1.0936,2.5964,238.0,52.0
47,49.0,0.23961570399999998,0.23772031100000002,4.1958,3.1103,3.4760000000000004,249.0,54.0
49,51.0,0.253349926,0.251074228,3.2489,4.7319,3.5458,274.0,58.0
51,53.0,0.22320444399999997,0.217752697,1.6597,3.1236,2.411,241.0,50.0
53,55.0,0.200436148,0.19522894899999998,1.2565,1.8396,1.8166,220.0,48.0
55,57.0,0.23196977800000002,0.229654443,2.8031,1.5939,3.0216,230.0,51.0
57,59.0,0.22595911100000002,0.219485895,2.7198,4.263,2.1063,237.0,51.0
59,61.0,0.219717926,0.211250962,2.1838,4.2129,2.0243,226.0,47.0
61,63.0,0.20722370399999998,0.19665200800000002,1.399,3.5978,0.3616,229.0,49.0
63,65.0,0.241551407,0.23994727,2.7486,3.082,2.2462,277.0,57.0
65,67.0,0.25515437,0.25369306,3.8598,3.4888,2.9247,280.0,60.0
67,69.0,0.264621926,0.26408889399999996,3.761,5.0636,3.6743,252.0,59.0
69,71.0,0.22899763,0.22632128199999998,3.2997,3.5112,1.86,252.0,53.0
71,73.0,0.24244948100000002,0.240063713,3.5322,5.5502,2.5973,279.0,57.0
75,77.0,0.21507407399999998,0.21211084300000002,1.8726,1.6282,2.2049,247.0,53.0
77,79.0,0.20877185199999998,0.200223652,2.096,1.3869,1.7275,233.0,46.0
80,83.0,0.22161688899999998,0.217443677,1.5482,3.1635,1.9134,231.0,51.0
82,85.0,0.19981185199999998,0.19504197,1.4269,1.6124,1.3999,225.0,51.0
86,89.0,0.226387852,0.225768181,3.7955,2.0129,4.0436,251.0,55.0
88,91.0,0.256290963,0.256098041,4.2474,4.6872,5.9188,245.0,57.0
90,93.0,0.21883288899999997,0.216769655,1.9846,2.7208,2.1703,233.0,55.0
92,95.0,0.22800385199999998,0.225413256,2.682,3.1884,2.5703,261.0,55.0
96,99.0,0.209696296,0.18590236899999998,2.1484,1.4738,1.8604,236.0,46.0
98,101.0,0.20250548100000001,0.198145605,2.0381,1.4414,1.6047,234.0,49.0
102,105.0,0.223230815,0.219089544,2.6947,1.7479,2.9224,244.0,53.0
104,107.0,0.20043111100000002,0.192052538,1.6653,0.9559,2.1394,229.0,48.0
108,111.0,0.220205037,0.219398564,3.1676,2.0125,3.2368,256.0,55.0
110,113.0,0.222989333,0.222997079,3.6836,2.9114,3.6944,240.0,53.0
136,139.0,0.223500741,0.21988112699999998,2.2759,3.2946,1.7586,217.0,49.0
138,141.0,0.222423407,0.21955867199999998,2.6338,3.6345,2.0477,246.0,51.0
140,143.0,0.21411288899999997,0.20678024899999997,1.7749,2.3016,1.5889,245.0,52.0
142,145.0,0.187422815,0.15357395599999998,1.7397,0.8782,1.0539,142.0,17.0
144,147.0,0.190385778,0.179798105,1.9915,0.9114,1.6032,226.0,46.0
146,149.0,0.20627437,0.201723966,2.6058,2.7177,2.5763,239.0,48.0
148,151.0,0.223473481,0.214247112,3.5437,4.4222,3.1853,252.0,52.0
150,153.0,0.20517659300000002,0.19272208100000002,2.8362,3.2615,2.3879,239.0,47.0
152,155.0,0.19600829600000003,0.19263139,2.8024,1.5101,0.3317,246.0,54.0
154,157.0,0.18460474100000002,0.18062439800000002,2.5644,1.2575,1.7054,226.0,46.0
156,159.0,0.173671407,0.163860066,1.837,1.839,1.7933,187.0,40.0
158,161.0,0.179734815,0.17730691199999998,1.0984,1.4662,1.9638,189.0,41.0
160,163.0,0.21447348100000002,0.208966901,1.6132,3.4103,1.6733,215.0,47.0
162,165.0,0.20216829600000003,0.197118897,1.7856,3.0341,2.1061,213.0,46.0
166,169.0,0.17620503699999998,0.100133995,1.0527,0.6293,0.6741,114.0,13.0
168,171.0,0.180840593,0.17175798899999997,1.8295,0.9913,1.6362,209.0,43.0
172,175.0,0.21569837,0.19957986100000003,2.845,3.9732,2.0889,232.0,47.0
174,177.0,0.20635763,0.19972541300000002,3.1063,2.5564,1.9113,249.0,50.0
178,181.0,0.173399704,0.16737908599999998,1.0231,1.4147,1.6972,213.0,45.0
180,183.0,0.17979229600000002,0.17336019,0.0434,2.9745,1.8338,197.0,42.0
182,185.0,0.240129185,0.23831371899999998,3.9871,2.9024,1.1788,230.0,54.0
184,187.0,0.20024977800000002,0.19819374899999997,1.6401,2.5812,1.8505,221.0,48.0
186,189.0,0.177813926,0.162373187,1.0602,2.1234,1.6731,182.0,39.0
188,191.0,0.17299437,0.163387579,0.9312,1.1291,1.1002,190.0,42.0
190,193.0,0.175150815,0.16362718099999998,0.4963,0.5227,1.6268,201.0,42.0
192,195.0,0.18836829600000002,0.18130065899999998,0.6604,1.6956,1.7978,200.0,44.0
194,197.0,0.210385778,0.202483081,2.8179,2.8560000000000003,2.4527,228.0,48.0
196,199.0,0.21737985199999998,0.210959856,3.252,3.4019,2.1452,267.0,53.0
198,201.0,0.209568593,0.20671643,2.9012,1.6307,1.2275,280.0,58.0
200,203.0,0.19424888899999998,0.19104598399999997,1.2687,1.1434,1.9563,247.0,51.0
202,205.0,0.163238815,0.152618905,0.4961,1.6614,1.6469999999999998,188.0,39.0
204,207.0,0.157190222,0.153052205,0.3293,0.2669,1.5438,185.0,39.0
206,209.0,0.23005037,0.223556897,2.2437,2.6884,1.8003,255.0,57.0
208,211.0,0.200799111,0.187650123,0.8634,2.0966,1.8039,221.0,47.0
212,215.0,0.17944029600000003,0.171714323,0.4531,1.1035,0.8095,185.0,44.0
214,217.0,0.17764474100000002,0.17182628600000002,0.7701,1.0328,1.4262,202.0,43.0
218,221.0,0.219583704,0.21676405699999998,3.292,2.9997,1.4902,269.0,55.0
220,223.0,0.223855407,0.222974686,3.9329,2.4374,2.1939,272.0,57.0
224,227.0,0.16215733300000001,0.158791467,0.9949,0.9084,1.2691,211.0,44.0
226,229.0,0.16072563,0.154005017,0.6843,2.0938,1.5612,197.0,40.0
227,231.0,0.23967525899999997,0.238424563,4.5253,2.3602,1.4804,269.0,57.0
229,233.0,0.203305481,0.199471256,1.1087,1.9521,1.6957,251.0,52.0
233,237.0,0.197907556,0.19460643100000002,0.6043,1.6059999999999999,1.1245,203.0,45.0
235,239.0,0.201368296,0.192807173,0.8416,2.38,1.9968,212.0,45.0
239,243.0,0.202038222,0.198188151,1.7674,2.0761,1.5425,252.0,54.0
241,245.0,0.224211556,0.223203092,3.0053,3.4729,1.9553,281.0,59.0
245,249.0,0.195972148,0.18479168899999998,3.0727,1.0956,1.7058,230.0,46.0
247,251.0,0.167456296,0.157147839,2.2749,1.4699,1.5959,191.0,38.0
273,277.0,0.218299556,0.216602829,4.4766,2.2745,1.6689,260.0,55.0
275,279.0,0.189168,0.18538285699999998,1.2843,1.198,1.0190000000000001,248.0,51.0
277,281.0,0.183786963,0.17889007899999998,0.7074,0.9607,0.6518,222.0,47.0
279,283.0,0.230252741,0.222852645,0.8096,1.7062,2.1829,238.0,54.0
281,285.0,0.23085096300000002,0.224439172,1.6247,2.8575,4.7626,245.0,55.0
283,287.0,0.22294311100000003,0.220523799,1.4423,1.6126,4.155,264.0,56.0
285,289.0,0.189494815,0.18624945699999998,0.7374,1.2188,1.8393,258.0,53.0
287,291.0,0.205700148,0.203019387,1.8624,1.646,1.8409,270.0,54.0
289,293.0,0.209024593,0.207880853,1.5177,1.4802,1.7207,241.0,53.0
291,295.0,0.218275556,0.217349627,3.5461,4.3592,1.4551,218.0,49.0
293,297.0,0.18493037,0.18238222899999998,3.1474,1.6011,1.5617,200.0,43.0
295,299.0,0.172328593,0.164783767,1.6697,0.4762,1.2967,198.0,51.0
297,301.0,0.197574222,0.192474641,1.3185,1.3058,0.8333,261.0,55.0
299,303.0,0.17807288899999998,0.175906245,1.0599,0.8029999999999999,0.7262,231.0,47.0
303,307.0,0.237890963,0.23405125899999998,1.6453,2.3781,5.285,239.0,53.0
305,309.0,0.232823704,0.22904983899999998,1.63,1.9831,5.3079,257.0,56.0
309,313.0,0.19411051899999998,0.18984909100000003,1.0405,1.1882,1.3283,271.0,54.0
311,315.0,0.19910103699999998,0.19772686,1.2421,1.3242,1.5141,243.0,52.0
315,319.0,0.196224,0.19492440800000002,3.0672,2.7205,1.6207,201.0,45.0
317,321.0,0.18138548100000002,0.17490752899999998,2.2379,0.9443,1.3472,202.0,43.0
319,323.0,0.18771763,0.18026835300000002,1.0927,1.1486,0.6436,228.0,49.0
321,325.0,0.180445037,0.17665640300000002,1.0414,0.8221,0.7354,228.0,48.0
323,327.0,0.177185185,0.17308363899999998,0.6987,0.8683,0.8456,220.0,47.0
325,329.0,0.22746548100000002,0.21606204399999998,0.5007,1.5195,2.6572,239.0,53.0
327,331.0,0.23570074100000002,0.22612310600000002,1.7066,3.0202,5.8287,251.0,52.0
329,333.0,0.23679437,0.235615393,1.6991,1.7781,5.1477,274.0,58.0
331,335.0,0.195687704,0.19158117,0.7029,1.3077,1.7175,250.0,53.0
333,337.0,0.194478519,0.18990395300000001,0.9612,1.4104,0.9323,232.0,48.0
335,339.0,0.19745007399999998,0.195683522,0.4137,1.6565,1.0891,206.0,47.0
337,341.0,0.20027140699999998,0.198581144,2.3525,4.9783,1.5509,185.0,43.0
339,343.0,0.18409688899999999,0.183758263,2.5201,1.5492,1.7474,199.0,45.0
340,345.0,0.16720563,0.161640944,1.0447,0.4067,1.1889,193.0,50.0
342,347.0,0.17478459300000002,0.17058796699999998,0.6799,0.6444,0.6990000000000001,213.0,47.0
344,349.0,0.170642667,0.161990271,0.6541,0.6564,0.7307,202.0,43.0
348,353.0,0.23788237,0.232203858,1.3159999999999998,1.7658,3.5642,244.0,55.0
350,355.0,0.242570963,0.237930803,2.5283,2.5792,4.9478,269.0,55.0
354,359.0,0.196738667,0.182208685,1.4601,1.3329,0.9919,230.0,45.0
356,361.0,0.19836444399999997,0.19648294300000002,0.7222,1.2879,1.1754,216.0,46.0
360,365.0,0.214965333,0.21357644899999997,1.9521,3.48,2.0654,200.0,47.0
362,367.0,0.18846963,0.183917252,1.5958,1.4224,1.3881,200.0,43.0
364,369.0,0.17544474100000002,0.169073098,1.0408,0.5561,1.188,215.0,46.0
366,371.0,0.164196444,0.157807306,0.3663,0.5252,0.7794,202.0,44.0
370,375.0,0.21329037,0.206958272,0.6292,1.405,1.1568,247.0,54.0
372,377.0,0.21672740699999998,0.21200671699999998,1.3144,1.8214,0.8953,248.0,55.0
376,381.0,0.194056593,0.187506809,1.5461,1.4989,0.8348,220.0,47.0
378,383.0,0.19637748100000002,0.19068993899999997,0.5905,1.2074,0.8474,208.0,46.0
382,387.0,0.21814637,0.215180889,0.9906,3.2746,1.7078,195.0,46.0
384,389.0,0.206414519,0.203488515,1.7095,2.1873,1.6501,206.0,47.0
410,415.0,0.18779200000000001,0.184677486,1.6569999999999998,0.6644,2.1081,231.0,47.0
412,417.0,0.160867556,0.156895921,0.5152,0.5734,1.3115,205.0,43.0
414,419.0,0.16208266699999999,0.15516160199999998,0.5539,0.6846,0.9324,190.0,41.0
416,421.0,0.18301629600000002,0.179981726,1.0555,1.5171,0.7707,209.0,45.0
418,423.0,0.204014815,0.202284905,1.1577,1.6052,0.7835,218.0,49.0
420,425.0,0.202958815,0.20118654,1.8928,1.5757,0.2623,216.0,49.0
422,427.0,0.19896829600000002,0.19656579600000001,1.5322,1.3888,0.7361,207.0,47.0
424,429.0,0.197777185,0.19513378,1.2989,1.9594,0.9743,228.0,47.0
426,431.0,0.193379852,0.192165621,1.6480000000000001,1.8016,1.5923,232.0,48.0
428,433.0,0.223390815,0.22238127800000002,2.7632,2.0842,1.8474,230.0,52.0
430,435.0,0.224584,0.220814905,3.2547,3.153,2.2254,239.0,51.0
432,437.0,0.217755852,0.212563177,3.1606,1.5434,1.9802,240.0,48.0
434,439.0,0.20867348100000002,0.20503025600000002,2.5895,2.3752,1.2908,223.0,48.0
436,441.0,0.195113185,0.18793227199999998,1.4674,1.1333,1.2557,212.0,45.0
440,445.0,0.194675259,0.191873396,1.5151,1.9223,1.2144,215.0,47.0
442,447.0,0.20698163,0.20465741699999998,1.7402,1.7211,1.0387,210.0,49.0
446,451.0,0.205867852,0.202902945,1.4953,1.7521,1.3356,207.0,47.0
448,453.0,0.20406074100000002,0.20081706,1.5569,1.849,2.2395,237.0,50.0
452,457.0,0.243469037,0.24133338199999999,3.4938,2.3745,3.3037,257.0,55.0
454,459.0,0.23525511100000002,0.23316002800000002,4.6963,4.7605,3.1872,243.0,52.0
456,461.0,0.22846666699999998,0.226161174,6.0185,6.6953,3.4904,233.0,51.0
458,463.0,0.223211556,0.22159753199999999,4.156000000000001,6.0525,2.1476,221.0,51.0
460,465.0,0.215129481,0.21348351899999998,1.774,2.5967,1.5349,218.0,48.0
462,467.0,0.226773333,0.225484913,2.1472,2.3301,1.5701,225.0,53.0
464,469.0,0.203012444,0.201665745,1.692,1.6043,2.1457,223.0,52.0
466,471.0,0.198332444,0.19640456899999997,0.5823,1.1151,2.4459,196.0,45.0
468,473.0,0.207863407,0.20159296899999998,0.6216,1.2841,1.682,201.0,46.0
470,475.0,0.230322074,0.22396220600000002,1.6399,2.8148,2.0614,236.0,49.0
472,477.0,0.245143704,0.244264593,2.93,2.6424,2.779,280.0,59.0
474,479.0,0.259328889,0.25883331600000004,4.5583,3.2217,3.8744,278.0,59.0
476,481.0,0.255607111,0.254762314,5.0028,5.0816,4.6169,264.0,56.0
478,483.0,0.22192029600000002,0.220803709,3.6302,1.7393,2.4291,229.0,51.0
480,485.0,0.21846874100000002,0.21576534,4.47,6.8009,1.7898,213.0,46.0
482,487.0,0.215918222,0.214607635,3.7958,3.4366,2.165,214.0,49.0
486,491.0,0.196340741,0.19391673399999998,1.5875,1.4217,2.13,220.0,48.0
488,493.0,0.19581570399999998,0.184653973,1.4577,1.3259,2.5629,203.0,44.0
492,497.0,0.23353007399999998,0.229024087,4.2783,3.4639,2.0135,226.0,48.0
494,499.0,0.234650074,0.233454493,4.6262,1.9698,2.4469,258.0,55.0
498,503.0,0.244095704,0.24281914100000002,4.8935,2.8596,4.7615,303.0,56.0
500,505.0,0.23891199999999999,0.23729037100000003,5.4923,4.2761,4.1318,267.0,53.0
502,507.0,0.244295407,0.239232942,6.3893,7.0068,6.068,233.0,46.0
504,509.0,0.22253985199999998,0.22072085600000002,4.6464,6.006,2.4461,249.0,49.0
507,513.0,0.22628414800000002,0.22484336100000002,1.8331,2.0294,2.0533,277.0,53.0
509,515.0,0.20572444399999998,0.19998628899999998,1.6438,1.6254,1.3733,287.0,58.0
513,519.0,0.23672859300000001,0.23485292,5.372000000000001,2.9065,3.4851,276.0,69.0
515,521.0,0.234160593,0.231307028,4.7469,2.0803,2.8385,300.0,71.0
519,525.0,0.21758725899999998,0.216251263,3.3501,2.0683,3.2891,324.0,79.0
521,527.0,0.215396148,0.21441841600000003,3.7336,4.4019,2.3805,307.0,73.0
3143,3175.0,0.157196444,0.14488221,0.3921,0.8811,1.2856,242.0,54.0
3145,3177.0,0.145781333,0.115255483,0.4622,0.9503,0.4865,103.0,15.0
3147,3179.0,0.170371259,0.168425947,0.7695,1.3082,0.7667,270.0,62.0
3149,3181.0,0.20765925899999998,0.201870639,1.6779,2.5729,1.7019,329.0,71.0
3151,3183.0,0.23075585199999998,0.229087906,1.723,2.992,3.0856,380.0,83.0
3153,3185.0,0.22408651899999998,0.219500451,1.5209,2.2153,2.9091,358.0,81.0
3155,3187.0,0.210930667,0.20782711,1.6698,1.3941,1.94,323.0,75.0
3157,3189.0,0.23678044399999998,0.23426175100000002,3.266,2.0284,3.1782,322.0,75.0
3159,3191.0,0.258079407,0.256480957,2.8483,2.9181,10.2577,302.0,73.0
3161,3193.0,0.24472740699999998,0.24313823699999998,2.5402,1.1603,9.974,298.0,75.0
3163,3195.0,0.214261333,0.212136595,1.5116,1.1014,5.5168,310.0,74.0
3165,3197.0,0.19453570399999998,0.193548373,1.4615,1.5867,1.5987,340.0,76.0
3167,3199.0,0.161682667,0.150742393,0.5406,0.9712,0.4835,247.0,57.0
3169,3201.0,0.147522963,0.13426692699999998,0.5201,1.0405,0.7251,242.0,55.0
3173,3205.0,0.20363051899999998,0.201386955,1.9525,1.8482,2.0538,254.0,73.0
3175,3207.0,0.23607199999999998,0.23479245899999998,2.1823,2.467,3.383,348.0,73.0
3179,3211.0,0.252110815,0.25026249100000003,3.4611,3.1444,8.9459,325.0,60.0
3181,3213.0,0.263075556,0.26169063,2.4733,4.3522,15.6906,302.0,62.0
3185,3217.0,0.19985451899999998,0.197879131,1.3595,0.7036,8.4675,257.0,61.0
3187,3219.0,0.182270815,0.17830227,1.0048,0.7194,1.3298,293.0,65.0
3189,3221.0,0.180634667,0.17822725399999997,0.7773,1.0959999999999999,1.6581,270.0,67.0
3191,3223.0,0.162687111,0.158296587,1.1891,1.1876,1.6552,255.0,65.0
3193,3225.0,0.169607111,0.167936666,1.7556,1.2405,0.9796,269.0,63.0
3195,3227.0,0.196097185,0.19505316600000003,2.8765,2.1519999999999997,1.7629,248.0,56.0
3197,3229.0,0.210988444,0.21023769,2.5188,1.443,2.4856,273.0,63.0
3199,3231.0,0.21872325899999998,0.217069718,1.834,1.3088,2.4032,296.0,63.0
3201,3233.0,0.21728000000000003,0.21474535,2.3319,1.8167,2.6213,289.0,59.0
3203,3235.0,0.261646815,0.259797323,3.3614,3.9302,16.7355,291.0,61.0
3205,3237.0,0.259742519,0.25796671600000004,2.5615,3.2251,20.4409,280.0,61.0
3207,3239.0,0.231566519,0.229558154,2.2030000000000003,0.3905,16.2483,243.0,57.0
3209,3241.0,0.17553896300000002,0.171918097,0.9581,0.3282,3.6562,228.0,50.0
3211,3243.0,0.158904889,0.152099394,0.2304,0.3704,1.2307,230.0,47.0
3213,3245.0,0.163310815,0.15760913,1.1509,0.9757,1.4303,225.0,48.0
3215,3247.0,0.159074074,0.15613120800000002,1.2953,0.8536,1.0581,233.0,50.0
3219,3251.0,0.201882667,0.20061440600000002,2.8273,1.5596,2.1275,309.0,69.0
3221,3253.0,0.20968237,0.206237225,3.07,1.0703,2.4725,328.0,77.0
3225,3257.0,0.227529185,0.223480762,2.2849,1.9282,3.4665,333.0,71.0
3227,3259.0,0.250756741,0.248709553,1.8206,2.9973,2.8001,316.0,74.0
3231,3263.0,0.175402963,0.170614839,0.8792,0.4484,1.8933,266.0,62.0
3233,3265.0,0.144834074,0.138784665,0.3389,0.4069,0.8916,256.0,69.0
3235,3267.0,0.168115259,0.164267614,0.8998,0.8841,1.1534,264.0,63.0
3237,3269.0,0.164746963,0.162742668,1.5316,1.0971,1.3342,271.0,70.0
3241,3273.0,0.20316770399999998,0.20065135399999998,2.7363,1.5644,1.8349,326.0,73.0
3243,3275.0,0.20039170399999998,0.19506772100000003,2.1389,0.5476,2.2471,319.0,81.0
3247,3279.0,0.20015496300000002,0.19598582399999998,2.0502,1.4975,2.2415,347.0,77.0
3249,3281.0,0.240592296,0.239086269,2.2128,3.3977,3.3734,278.0,81.0
3253,3285.0,0.21149629600000003,0.20986373100000003,1.0857,0.6048,2.2484,287.0,66.0
3255,3287.0,0.153653333,0.14130049,0.7029,0.4634,1.2969,229.0,53.0
3281,3313.0,0.168666963,0.163865664,0.6920000000000001,1.5624,1.1966,249.0,70.0
3283,3315.0,0.163042963,0.160468684,1.6715,1.3917,1.499,251.0,70.0
3285,3317.0,0.151802667,0.14720098,1.1211,0.7018,0.6843,268.0,76.0
3287,3319.0,0.172737185,0.16743506800000002,1.4183,0.6886,0.6095,253.0,59.0
3289,3321.0,0.177348741,0.170904825,2.076,0.8795,1.3581,284.0,67.0
3291,3323.0,0.19367377800000002,0.18521491199999998,1.5141,2.4144,2.4521,276.0,66.0
3293,3325.0,0.18946725899999997,0.184380782,1.2211,1.953,2.3633,276.0,65.0
3295,3327.0,0.21358933300000002,0.210038394,1.3492,2.7641,2.1338,313.0,65.0
3297,3329.0,0.205395259,0.20314478600000002,1.1198,1.4465,1.9423,310.0,74.0
3299,3331.0,0.19805155600000002,0.19436235,0.4687,0.4724,1.6869999999999998,288.0,78.0
3301,3333.0,0.161126519,0.155171679,0.3144,0.4075,1.3504,256.0,62.0
3303,3335.0,0.174600593,0.168711455,1.1214,1.0743,1.3853,241.0,60.0
3305,3337.0,0.153884741,0.146159717,1.2392,1.2712,1.7241,236.0,59.0
3307,3339.0,0.156064889,0.148550143,1.217,0.6672,1.3048,233.0,62.0
3311,3343.0,0.173044741,0.164900209,1.0202,0.7246,0.7285,279.0,75.0
3313,3345.0,0.181110815,0.17517960100000002,1.3423,1.2373,1.0748,290.0,76.0
3317,3349.0,0.182320593,0.17899308600000002,1.2319,1.2967,1.4729,289.0,70.0
3319,3351.0,0.19094133300000002,0.189304947,1.2656,1.5806,1.2027,304.0,77.0
3323,3355.0,0.173721185,0.166795755,0.3137,0.6025,1.9193,250.0,64.0
3325,3357.0,0.170741333,0.15532283,0.9703,0.9456,2.1763,246.0,61.0
3327,3359.0,0.14799585199999998,0.13659913199999998,0.107,1.2386,1.3771,238.0,64.0
3329,3361.0,0.146416889,0.130132106,0.7931,1.2670000000000001,1.5614,230.0,57.0
3331,3363.0,0.141241481,0.128887069,0.6281,0.6331,0.5391,256.0,68.0
3333,3365.0,0.16873511100000002,0.158900072,0.2668,0.6709999999999999,0.4133,298.0,85.0
3335,3367.0,0.181613037,0.17467016600000002,1.1334,0.7455,0.7059,317.0,91.0
3337,3369.0,0.17722163,0.173906573,1.0477,1.6833,0.4849,327.0,90.0
3339,3371.0,0.170733037,0.16767579,1.0337,1.2790000000000001,0.8812,309.0,87.0
3341,3373.0,0.17972444399999998,0.17595439,1.3219,1.0431,1.6179,304.0,85.0
3343,3375.0,0.193297185,0.190104368,1.0802,0.9734,2.1308,304.0,87.0
3345,3377.0,0.187294815,0.18296108100000003,0.2494,0.8962,2.5701,273.0,91.0
3347,3379.0,0.171196741,0.164171325,0.2792,1.8903,3.0956,269.0,74.0
3349,3381.0,0.19347763,0.18750121100000003,1.5404,2.4362,3.0394,282.0,79.0
3351,3383.0,0.155272889,0.148931939,0.6886,1.304,1.9877,255.0,68.0
3353,3385.0,0.158282074,0.146713937,0.8448,0.6309,0.6406,235.0,67.0
3357,3389.0,0.177454222,0.167514563,0.8313,1.2202,0.5636,291.0,89.0
