index,case-name,Porosity,Eff. Porosity,K(x)[D],K(y)[D],K(z)[D],M. time[s],S. Time[s],Res.
0,1.0,0.167660741,0.160278345,0.9843,1.8542,1.4641,256.0,62.0,3e-06
2,3.0,0.221498074,0.22071973600000003,1.7934,3.4136,10.9529,248.0,66.0,3e-06
3,4.0,0.222788741,0.222489883,1.679,3.5513,10.9341,281.0,86.0,3e-06
4,5.0,0.225810963,0.22455001600000002,1.5263,2.6547,5.5371,258.0,87.0,3e-06
5,6.0,0.200472889,0.199039076,2.4428,2.1822,4.7085,260.0,82.0,3e-06
6,7.0,0.191482963,0.190485045,2.4668,0.8737,4.0159,314.0,79.0,3e-06
7,8.0,0.205057481,0.202513311,1.8562,1.006,1.5977,213.0,62.0,3e-06
8,9.0,0.217534222,0.216706955,1.3157,2.8699,1.5567,228.0,63.0,3e-06
9,10.0,0.237109037,0.23572511699999998,1.6182,4.5004,1.5519999999999998,243.0,75.0,3e-06
10,11.0,0.23976148100000003,0.23586843100000002,1.7073,1.9634,1.4117,255.0,73.0,3e-06
11,12.0,0.253371556,0.249159648,2.8699,2.5405,2.9226,278.0,91.0,3e-06
12,13.0,0.246696296,0.24510656,3.1772,8.6761,2.7459,270.0,80.0,3e-06
13,14.0,0.237198222,0.236587238,6.0136,8.4601,1.7099,202.0,63.0,3e-06
14,15.0,0.17862755600000002,0.17845678,3.3212,1.8905,1.1582,202.0,56.0,3e-06
15,16.0,0.187730963,0.18699961399999998,3.6614,1.9941,3.7560000000000002,197.0,59.0,3e-06
17,18.0,0.24865185199999998,0.247968353,5.7432,11.1888,7.8515,205.0,64.0,3e-06
19,20.0,0.17509037,0.17407451899999998,1.7046,0.7753,2.5669,206.0,63.0,3e-06
21,22.0,0.21914992600000002,0.21835058300000001,0.8647,4.6024,9.4761,217.0,72.0,3e-06
22,23.0,0.224334815,0.223527787,1.2533,2.7442,5.1479,243.0,81.0,3e-06
23,24.0,0.19480355600000002,0.19434891399999998,2.4952,2.7872,4.2841,235.0,71.0,3e-06
24,25.0,0.174563852,0.173244867,2.5517,1.8913,3.6536,220.0,69.0,3e-06
25,26.0,0.214898074,0.213251754,5.3332,2.3236,2.2108,223.0,68.0,3e-06
26,27.0,0.243351407,0.241780117,7.0463,4.3242,1.9199,248.0,64.0,3e-06
27,28.0,0.263295407,0.262909916,7.7547,7.2032,2.083,271.0,76.0,3e-06
28,29.0,0.24426251899999998,0.24234441399999998,1.1891,1.4668,1.505,265.0,84.0,3e-06
29,30.0,0.261473481,0.26088785,0.7531,1.2839,28.5114,280.0,94.0,3e-06
30,31.0,0.262061926,0.25889489600000004,0.6359,7.2381,28.3539,231.0,93.0,3e-06
31,32.0,0.263362667,0.263190945,6.5172,8.5295,23.16,264.0,86.0,3e-06
32,33.0,0.19191466699999998,0.19159460600000003,3.8609,2.0669,1.1028,231.0,74.0,3e-06
34,35.0,0.177361778,0.175580431,2.3221,4.5811,2.2501,172.0,56.0,3e-06
36,37.0,0.19374044399999998,0.190992241,2.7209,2.8483,2.0804,236.0,73.0,3e-06
38,39.0,0.19991229600000002,0.198647202,1.0094,0.9081,6.3649,199.0,59.0,3e-06
39,40.0,0.21106963,0.21023433100000002,0.9223,3.193,7.2153,234.0,69.0,3e-06
40,41.0,0.22617600000000002,0.225050494,1.3818,2.6392,5.3922,240.0,80.0,3e-06
41,42.0,0.190368593,0.188662275,2.3916,2.274,2.8596,241.0,58.0,3e-06
42,43.0,0.165679704,0.16335287,2.4938,1.6368,2.3334,199.0,53.0,3e-06
43,44.0,0.205384889,0.203139188,5.0776,2.0521,3.6377,230.0,66.0,3e-06
44,45.0,0.22891051899999998,0.216427046,6.9138,3.4346,6.0591,236.0,63.0,3e-06
45,46.0,0.271396148,0.271261292,8.0367,16.2236,7.1610000000000005,309.0,84.0,3e-06
46,47.0,0.231675852,0.216112428,2.3236,6.6238,3.7741,231.0,56.0,3e-06
47,48.0,0.21998192600000002,0.21671591199999998,3.7519,4.6911,4.7195,213.0,57.0,3e-06
48,49.0,0.19822429600000002,0.184955156,2.7499,4.0456,2.9730000000000003,171.0,47.0,3e-06
49,50.0,0.20480622199999998,0.20203074699999998,1.9892,1.7237,0.9543,173.0,54.0,3e-06
50,51.0,0.173820444,0.17256300800000002,1.7356,2.0378,1.7936,177.0,52.0,3e-06
51,52.0,0.17256859300000002,0.17087683399999998,2.3251,2.3307,1.486,171.0,51.0,3e-06
53,54.0,0.23144829600000003,0.231651876,4.8101,4.2983,7.2235,346.0,82.0,3e-06
54,55.0,0.202689481,0.20132985399999997,1.4739,2.7961,1.588,189.0,58.0,3e-06
55,56.0,0.172270222,0.170046063,2.0039,1.8742,2.7034,176.0,56.0,3e-06
56,57.0,0.19082311100000002,0.18842155300000002,2.3614,1.9469999999999998,3.4055,202.0,61.0,3e-06
57,58.0,0.18494933300000002,0.182047457,1.9658,1.6814,2.4971,198.0,58.0,3e-06
58,59.0,0.19754488899999997,0.193181132,1.4652,1.0448,1.537,186.0,55.0,3e-06
59,60.0,0.201522963,0.199217098,1.5334,1.1121,2.9617,166.0,55.0,3e-06
60,61.0,0.195498074,0.19265154399999998,1.7633,1.8062,2.7679,167.0,53.0,3e-06
61,62.0,0.226721481,0.22486911199999998,4.2367,1.9645,4.7625,169.0,55.0,3e-06
62,63.0,0.22639377800000002,0.223081051,3.7885,2.5161,5.5158,171.0,53.0,3e-06
63,64.0,0.254481778,0.25381622,3.6744,14.0472,5.9718,196.0,61.0,3e-06
64,65.0,0.21319851899999998,0.21194737600000002,0.4977,7.0712,2.1912,184.0,57.0,3e-06
65,66.0,0.202473185,0.200744283,3.2241,4.3936,0.8332,180.0,55.0,3e-06
66,67.0,0.18282637,0.18136223899999998,2.7364,0.5597,0.6573,173.0,52.0,3e-06
67,68.0,0.203908444,0.20234200600000002,1.0677,1.4621,1.3557,174.0,56.0,3e-06
68,69.0,0.179775407,0.17910281100000003,1.0093,1.5354,2.1414,171.0,54.0,3e-06
69,70.0,0.174153778,0.173034375,1.1735,1.0694,1.8030000000000002,171.0,50.0,3e-06
71,72.0,0.217814222,0.216360987,4.9191,3.5117,9.85,185.0,53.0,3e-06
73,74.0,0.169166519,0.167554869,1.6069,1.4368,1.2608,221.0,56.0,3e-06
75,76.0,0.171561778,0.168981288,1.9191,1.5785,1.0447,212.0,55.0,3e-06
76,77.0,0.185022519,0.18245164600000002,1.8549,1.6102,0.7817,223.0,57.0,3e-06
77,78.0,0.20185363,0.200838333,1.6416,1.8768,3.4101,203.0,58.0,3e-06
78,79.0,0.21273303699999999,0.21242770100000002,2.513,4.1769,5.4145,209.0,59.0,3e-06
79,80.0,0.195660444,0.19296280300000002,2.4951,4.0131,5.746,193.0,51.0,3e-06
80,81.0,0.173253037,0.17123959600000002,1.2725,3.1937,4.1857,199.0,52.0,3e-06
81,82.0,0.179442667,0.177915995,0.7264,2.4239,2.4612,194.0,55.0,3e-06
82,83.0,0.194670222,0.193229277,1.2658,3.4819,1.79,202.0,57.0,3e-06
83,84.0,0.226537185,0.224948607,2.1602,2.0558,0.8326,193.0,55.0,3e-06
84,85.0,0.24857392600000003,0.24797171199999998,2.3141,5.1468,1.0164,194.0,60.0,3e-06
85,86.0,0.253073778,0.252357332,1.6104,8.9668,2.8279,214.0,62.0,3e-06
86,87.0,0.234713778,0.23426175100000002,2.1363,2.7349,2.8493,231.0,66.0,3e-06
88,89.0,0.261122074,0.261021087,8.1395,2.9989,11.5406,233.0,64.0,3e-06
90,91.0,0.211296593,0.21042243,1.2087,2.5029,1.8494,240.0,64.0,3e-06
92,93.0,0.17351703699999999,0.169943056,0.7665,1.7269,1.1165,200.0,55.0,3e-06
93,94.0,0.166941926,0.164387415,0.8683,1.0629,0.7689,177.0,53.0,3e-06
94,95.0,0.18330963,0.18066582399999997,1.3233,1.1291,1.7829,180.0,53.0,3e-06
95,96.0,0.22397688899999998,0.221605369,1.4047,3.5483,3.9883,192.0,56.0,3e-06
96,97.0,0.241660741,0.241302032,3.3191,3.8132,5.9165,191.0,59.0,3e-06
97,98.0,0.222953481,0.206942597,3.2264,5.632999999999999,5.2429,192.0,53.0,3e-06
98,99.0,0.21827763,0.216635298,3.0957,6.7024,4.7291,209.0,60.0,3e-06
99,100.0,0.200337185,0.19993926399999998,2.1072,3.3132,3.2822,207.0,59.0,3e-06
100,101.0,0.21275525899999997,0.212691935,3.2677,2.6921,2.9954,186.0,55.0,3e-06
101,102.0,0.22147970399999997,0.22133329699999998,2.1686,2.9294,1.2484,180.0,52.0,3e-06
102,103.0,0.24189007399999998,0.241658077,2.3591,5.3387,2.5449,208.0,56.0,3e-06
103,104.0,0.247314074,0.246357195,2.1679,10.7455,2.6239,240.0,64.0,3e-06
104,105.0,0.241946667,0.241158718,3.0003,2.4855,3.1414,252.0,83.0,3e-06
105,106.0,0.23322222199999998,0.231959777,2.2953,2.6327,3.1552,242.0,67.0,3e-06
107,108.0,0.272570074,0.267265305,13.1814,9.2194,17.584,214.0,65.0,3e-06
108,109.0,0.208244741,0.20421627899999997,1.848,1.4719,2.2918,270.0,73.0,3e-06
109,110.0,0.224388444,0.223065376,1.5622,1.545,2.3617,272.0,80.0,3e-06
110,111.0,0.188420741,0.18701528899999997,0.7408,1.6524,1.847,257.0,74.0,3e-06
111,112.0,0.205647704,0.205518418,2.5610000000000004,2.6207,1.1229,193.0,54.0,3e-06
112,113.0,0.19023644399999998,0.189167232,1.7509,2.1307,2.0356,188.0,52.0,3e-06
113,114.0,0.203563556,0.20266782100000003,1.6331,4.3121,3.4468,159.0,49.0,3e-06
114,115.0,0.187310815,0.185248501,2.0418,3.0205,4.2068,148.0,45.0,3e-06
115,116.0,0.202248593,0.20035800899999998,2.5984,3.8552,4.3902,161.0,48.0,3e-06
116,117.0,0.209803259,0.206875418,2.7223,5.433,4.4049,167.0,50.0,3e-06
117,118.0,0.20120948100000002,0.19976796,2.9336,4.066,3.4203,172.0,52.0,3e-06
118,119.0,0.211559704,0.210536633,4.196000000000001,4.1358,3.5055,169.0,50.0,3e-06
119,120.0,0.21580148100000002,0.215048772,2.2884,1.5485,2.1048,166.0,51.0,3e-06
120,121.0,0.241772741,0.23933035,2.6439,4.6378,2.6748,170.0,57.0,3e-06
121,122.0,0.242352593,0.235701605,2.1721,10.232000000000001,1.9749,185.0,58.0,3e-06
122,123.0,0.241563556,0.24096949899999998,3.1457,2.8371,2.9738,178.0,60.0,3e-06
123,124.0,0.22463940699999999,0.218899205,2.3981,3.1188,3.1574,179.0,55.0,3e-06
125,126.0,0.324222519,0.320541016,15.8318,20.1463,38.6714,154.0,54.0,3e-06
127,128.0,0.226016889,0.225411017,5.2053,3.8438,4.9426,205.0,53.0,3e-06
129,130.0,0.22225837,0.21641025100000003,3.6204,3.284,3.1424,215.0,53.0,3e-06
130,131.0,0.203940444,0.198206065,4.0731,3.3272,3.1468,221.0,54.0,3e-06
131,132.0,0.217152889,0.21594000300000002,2.7272,3.2668,5.0566,210.0,56.0,3e-06
132,133.0,0.187389926,0.186158766,2.0579,1.6339,3.8372,188.0,46.0,3e-06
133,134.0,0.223718222,0.222703734,3.6519999999999997,6.2189,5.9822,206.0,52.0,3e-06
134,135.0,0.218836444,0.21665657100000002,3.55,7.3851,5.3716,204.0,58.0,3e-06
135,136.0,0.206681185,0.20565277399999998,3.0591,4.5489,4.1301,206.0,60.0,3e-06
136,137.0,0.19507466699999998,0.19098552300000002,3.0065,4.2669,3.0067,215.0,57.0,3e-06
137,138.0,0.177876148,0.17542480100000002,1.8289,2.2988,2.4551,199.0,49.0,3e-06
138,139.0,0.19278607399999997,0.189176189,2.6855,2.2504,2.3182,209.0,50.0,3e-06
139,140.0,0.213775407,0.212015674,2.7822,4.9915,1.8275,195.0,57.0,3e-06
140,141.0,0.226837333,0.226661652,3.1036,2.3113,3.0652,218.0,58.0,3e-06
142,143.0,0.25676325899999997,0.255521428,3.9381,4.94,7.9008,197.0,59.0,3e-06
144,145.0,0.223916444,0.222515634,6.7181,1.8931,1.6957,241.0,67.0,3e-06
146,147.0,0.236002667,0.234182257,5.869,3.6393,4.7073,237.0,59.0,3e-06
147,148.0,0.243237037,0.242240288,4.8915,4.8613,4.3532,238.0,60.0,3e-06
148,149.0,0.21855496300000002,0.21801469199999998,5.9036,4.6264,3.8447,206.0,63.0,3e-06
149,150.0,0.215709037,0.214555012,2.6016,2.1438,4.6337,196.0,58.0,3e-06
150,151.0,0.183618074,0.182419177,2.6191,2.2119999999999997,3.6635,195.0,50.0,3e-06
151,152.0,0.224948741,0.223685656,3.7158,5.3949,6.0711,217.0,58.0,3e-06
152,153.0,0.19268207399999998,0.190434662,2.2411,2.7268,4.726,200.0,52.0,3e-06
153,154.0,0.181404444,0.177431192,1.1725,0.9232,4.0456,195.0,57.0,3e-06
154,155.0,0.16223051900000002,0.157469175,0.6333,0.8892,1.0090000000000001,225.0,64.0,3e-06
155,156.0,0.169982519,0.158463413,1.984,1.4658,2.1836,243.0,58.0,3e-06
156,157.0,0.212465185,0.20923001600000002,3.5049,3.3596,3.4964,291.0,81.0,3e-06
157,158.0,0.234955852,0.23308837100000002,3.5538,6.1423,3.0314,281.0,95.0,3e-06
158,159.0,0.230485037,0.230936428,3.2560000000000002,1.7639,5.7413,300.0,98.0,3e-06
159,160.0,0.201690074,0.20124924,1.1415,1.2802,4.5622,252.0,77.0,3e-06
161,162.0,0.247723556,0.247720914,2.6444,4.0760000000000005,3.1179,214.0,62.0,3e-06
162,163.0,0.231003259,0.230674433,6.2023,5.2632,2.1298,233.0,61.0,3e-06
163,164.0,0.23315259300000002,0.23261028600000003,3.9441,3.6923,2.7996,211.0,61.0,3e-06
164,165.0,0.220172148,0.21829796,4.6498,3.1402,4.637,226.0,58.0,3e-06
165,166.0,0.22834607399999998,0.223440455,4.6769,4.4702,7.0399,221.0,58.0,3e-06
166,167.0,0.234573333,0.23462899199999998,6.5926,5.2038,6.9722,235.0,60.0,3e-06
167,168.0,0.232016296,0.23146377699999998,2.6613,3.0366,5.5452,223.0,59.0,3e-06
168,169.0,0.231299852,0.23126896,3.2892,3.2455,4.2745,242.0,61.0,3e-06
169,170.0,0.25142311100000003,0.251250011,5.0452,5.5326,6.3861,245.0,63.0,3e-06
170,171.0,0.220375407,0.21934594100000002,3.7378,3.5873,4.3375,250.0,61.0,3e-06
171,172.0,0.16534933300000001,0.158925823,1.3117,0.9417,1.9305,208.0,47.0,3e-06
172,173.0,0.150932741,0.138723085,0.3085,0.6808,0.3221,196.0,45.0,3e-06
173,174.0,0.17607822199999998,0.168615166,2.2345,0.9917,2.1007,206.0,48.0,3e-06
174,175.0,0.224335704,0.22031778600000002,3.8346,4.0164,4.5569999999999995,228.0,57.0,3e-06
175,176.0,0.25890963,0.256854916,5.0081,6.1374,5.8409,238.0,61.0,3e-06
176,177.0,0.231275852,0.229917558,5.1277,2.638,11.0743,228.0,57.0,3e-06
177,178.0,0.219369481,0.218447991,3.3644,2.6783,9.452,232.0,57.0,3e-06
179,180.0,0.19278163,0.191267672,1.9916,2.5322,2.221,225.0,60.0,3e-06
181,182.0,0.22301422199999998,0.21938064899999998,2.9539999999999997,4.5777,4.4816,209.0,56.0,3e-06
183,184.0,0.211581926,0.207714027,3.7026,4.3577,4.8953,252.0,70.0,3e-06
184,185.0,0.220671704,0.21927540399999998,3.8911,2.6611,3.4216,246.0,80.0,3e-06
185,186.0,0.21372800000000003,0.20954575399999997,1.2453,2.3898,3.355,216.0,74.0,3e-06
186,187.0,0.224817481,0.222111445,1.776,1.8974,3.6082,270.0,65.0,3e-06
187,188.0,0.226908148,0.224822088,2.5106,2.6402,4.3074,294.0,80.0,3e-06
188,189.0,0.194638222,0.190873559,2.2537,1.1601,3.9534,269.0,72.0,3e-06
189,190.0,0.126778074,0.10021830400000001,0.5318133279999999,0.254652659,0.0,276.0,50.0,3e-06
190,191.0,0.127603259,0.083212354,0.5346,0.1922,0.2797,167.0,36.0,3e-06
191,192.0,0.16879466699999998,0.16211679,2.6323,0.2394,1.5744,225.0,64.0,3e-06
192,193.0,0.24644474100000002,0.244906145,4.1925,2.0605,2.8904,253.0,65.0,3e-06
193,194.0,0.277232593,0.277387948,7.3151,4.8186,6.7229,261.0,68.0,3e-06
194,195.0,0.239737185,0.236033018,2.8795,3.6675,10.7542,209.0,57.0,3e-06
196,197.0,0.15897540699999999,0.157295631,0.8879,1.3965,1.5585,177.0,48.0,3e-06
198,199.0,0.200363259,0.19714017,0.8656,4.4681,3.8178,188.0,56.0,3e-06
200,201.0,0.159907556,0.158266357,1.2296,2.2022,3.6010000000000004,153.0,46.0,3e-06
201,202.0,0.188753778,0.187891965,1.3498,2.6209,3.6022,165.0,53.0,3e-06
202,203.0,0.20222874100000002,0.200377042,1.4796,1.8534,1.4783,175.0,55.0,3e-06
203,204.0,0.20545363,0.204292415,1.4595,1.3039,2.2239,185.0,61.0,3e-06
204,205.0,0.207641778,0.20672874600000002,1.6718,1.288,2.1917,196.0,64.0,3e-06
205,206.0,0.193437037,0.191872276,1.4338,0.6788,1.7708,211.0,65.0,3e-06
206,207.0,0.160228741,0.157232931,1.3382,0.2135,0.9243,194.0,53.0,3e-06
207,208.0,0.092629926,0.043351244000000004,0.169713675,0.135376639,0.0,206.0,25.0,3e-06
208,209.0,0.088909037,0.075182985,0.537,0.1894,0.0825,100.0,26.0,3e-06
209,210.0,0.156282667,0.150712163,2.8694,0.2418,1.3761,156.0,44.0,3e-06
210,211.0,0.22823111100000001,0.22701321800000002,4.4165,1.849,2.6127,196.0,63.0,3e-06
211,212.0,0.271054519,0.27132847,7.4032,7.4665,5.2374,205.0,69.0,3e-06
212,213.0,0.213929481,0.21281285600000002,2.3958,3.5022,2.7644,155.0,52.0,3e-06
213,214.0,0.187803556,0.181412623,0.365,2.4588,2.2514,152.0,49.0,3e-06
215,216.0,0.191923852,0.190657469,0.9744,2.3116,4.8271,171.0,54.0,3e-06
217,218.0,0.177377185,0.17672022199999998,0.8992524709999999,1.184299158,2.506850065,331.0,74.0,3e-06
220,221.0,0.20179555600000001,0.200926784,2.2573,1.7864,1.4338,185.0,58.0,3e-06
223,224.0,0.171721481,0.167278319,1.0562,0.5984,1.0959999999999999,187.0,56.0,3e-06
226,227.0,0.080438815,0.077904376,0.2989,0.1051,0.0846,94.0,31.0,3e-06
963,973.0,0.24138785199999999,0.24037879899999998,4.1831,5.1589,4.6369,186.0,56.0,3e-06
965,975.0,0.266034963,0.26620388899999997,2.6509,7.6154,7.0520000000000005,343.0,88.0,3e-06
966,976.0,0.259965333,0.25902701300000003,3.2937,5.3034,5.1883,384.0,91.0,3e-06
967,977.0,0.25214044399999996,0.24839644600000002,4.6525,7.3249,4.7522,199.0,66.0,3e-06
968,978.0,0.22488474100000003,0.221188215,2.1875,4.2935,5.0643,182.0,58.0,3e-06
969,979.0,0.213195852,0.21260266,1.8895,4.678,3.0767,177.0,58.0,3e-06
970,980.0,0.210334519,0.21033884100000003,2.0508,3.8415,2.5943,196.0,69.0,3e-06
971,981.0,0.198916741,0.19430243,1.6995,2.7952,3.2946,197.0,58.0,3e-06
972,982.0,0.20562399999999997,0.20441876899999997,1.4165,2.647,2.0917,195.0,61.0,3e-06
973,983.0,0.20555555600000003,0.204516953,0.4597,4.8787,3.5903,172.0,55.0,3e-06
974,984.0,0.21710222199999998,0.215039418,0.7744,6.1263,3.2201,182.0,57.0,3e-06
975,985.0,0.253473185,0.253185167,6.7170000000000005,4.6872,2.4922,183.0,59.0,3e-06
976,986.0,0.259183407,0.258473734,7.6089,4.1822,4.9301,186.0,64.0,3e-06
977,987.0,0.241613037,0.241457712,3.0721,5.184,5.0236,184.0,63.0,3e-06
978,988.0,0.20760444399999997,0.20621595199999998,1.8599,4.1123,5.4349,368.0,84.0,3e-06
980,990.0,0.253886222,0.253316862,5.2288,7.1963,10.2914,356.0,89.0,3e-06
982,992.0,0.282531259,0.282564612,4.203,12.8545,16.4353,170.0,53.0,3e-06
984,994.0,0.282248593,0.28280895699999997,4.4173,6.7112,6.0443,193.0,65.0,3e-06
985,995.0,0.22977363,0.229677817,2.8991,4.6987,3.6139,201.0,65.0,3e-06
986,996.0,0.23650963,0.23518730000000002,2.7986,4.9818,4.216,189.0,63.0,3e-06
987,997.0,0.20442874100000002,0.203560771,2.9711,3.346,2.9991,201.0,61.0,3e-06
988,998.0,0.209404444,0.20860611,3.5783,2.0648,2.8017,203.0,63.0,3e-06
989,999.0,0.198560889,0.19653835600000003,1.6499,1.4018,2.6503,197.0,62.0,3e-06
990,1000.0,0.19516088899999998,0.192482672,1.1782,2.7745,2.5468,184.0,57.0,3e-06
991,1001.0,0.19924148100000003,0.197832605,0.4978,3.9746,2.8595,208.0,63.0,3e-06
992,1002.0,0.20698103699999998,0.20403272600000003,0.5046,4.2537,1.4627,223.0,65.0,3e-06
993,1003.0,0.21786548100000003,0.21603688199999999,1.4798,3.8823,1.7098,225.0,66.0,3e-06
994,1004.0,0.240369185,0.23895735699999998,2.2075,4.6666,3.9157,204.0,66.0,3e-06
995,1005.0,0.210344593,0.20874669199999998,1.2474,5.4942,3.5709,176.0,57.0,3e-06
997,1007.0,0.198982222,0.19188687100000001,4.5198,4.1602,4.0382,166.0,51.0,3e-06
999,1009.0,0.235017185,0.234553564,5.8483,6.0181,5.0001,162.0,53.0,3e-06
1001,1011.0,0.286183407,0.286773151,4.86,10.6413,11.5433,172.0,58.0,3e-06
1002,1012.0,0.269916741,0.269687953,5.3566,6.3515,9.0897,182.0,59.0,3e-06
1003,1013.0,0.203675259,0.200914256,1.8027,3.588,3.8192,182.0,58.0,3e-06
1004,1014.0,0.228871407,0.227710782,3.4314,4.2126,3.4606,185.0,62.0,3e-06
1005,1015.0,0.22316592600000001,0.222378701,4.5618,3.6128,5.6125,195.0,63.0,3e-06
1006,1016.0,0.20254340699999998,0.202105857,4.0312,1.6033,5.0343,180.0,58.0,3e-06
1007,1017.0,0.17507763,0.17291273899999998,0.3961,0.763,0.6385,175.0,55.0,3e-06
1008,1018.0,0.157127407,0.153657443,0.4634,0.5188,0.7164,176.0,53.0,3e-06
1009,1019.0,0.17825363,0.171098522,0.5047872870000001,1.007110194,0.80889185,413.0,85.0,3e-06
1010,1020.0,0.172454222,0.160895266,0.567793284,0.890627139,0.773486916,444.0,82.0,3e-06
1011,1021.0,0.177766222,0.1754064,0.8603,1.3144,0.885,209.0,63.0,3e-06
1012,1022.0,0.207486815,0.205849137,2.0964,2.2129,2.9322,198.0,62.0,3e-06
1013,1023.0,0.193364148,0.190464314,2.0175,3.0872,3.3454,175.0,57.0,3e-06
1014,1024.0,0.203875556,0.20179122100000002,2.2094,4.9517,3.8687,176.0,55.0,3e-06
1016,1026.0,0.223744296,0.223633899,5.8506,4.6212,4.8078,172.0,57.0,3e-06
1017,1027.0,0.165761481,0.160618493,1.9652,2.6316,1.3789,135.0,44.0,3e-06
1018,1028.0,0.23851111100000003,0.23510362,4.3311,4.5191,8.6339,155.0,50.0,3e-06
1019,1029.0,0.276920889,0.276526272,4.4369,11.1006,11.2545,171.0,55.0,3e-06
1020,1030.0,0.287470519,0.287066589,8.0003,6.7741,14.1306,179.0,61.0,3e-06
1021,1031.0,0.22183200000000003,0.22081779199999998,4.7715,1.8958,6.0026,181.0,59.0,3e-06
1022,1032.0,0.229718815,0.228434892,3.2173,1.8371,4.4514,185.0,62.0,3e-06
1023,1033.0,0.22242370399999997,0.22272123,4.7504,2.0934,8.0724,191.0,65.0,3e-06
1024,1034.0,0.209018963,0.209066907,4.2359,1.0054,8.0415,187.0,59.0,3e-06
1025,1035.0,0.183744889,0.181613215,0.2589,0.6854,1.2388,197.0,58.0,3e-06
1026,1036.0,0.16095051900000001,0.157277992,0.3675,0.6779,0.903,205.0,56.0,3e-06
1027,1037.0,0.18990370399999998,0.18850732,0.5826,1.0508,1.0566,277.0,68.0,3e-06
1028,1038.0,0.186234963,0.180893568,0.7393,0.8682,0.9892,277.0,68.0,3e-06
1029,1039.0,0.20417688899999997,0.201921762,1.2375,1.1404,0.8137,280.0,72.0,3e-06
1030,1040.0,0.233059259,0.23242363300000002,2.1452,4.3017,3.1929,252.0,78.0,3e-06
1031,1041.0,0.22984474100000002,0.226399798,2.1895,3.7942,3.4283,222.0,76.0,3e-06
1032,1042.0,0.22959851899999997,0.228155959,4.1566,3.7591,2.4389,242.0,72.0,3e-06
1034,1044.0,0.267728593,0.268077043,8.2105,9.1977,4.7127,341.0,86.0,3e-06
1036,1046.0,0.21402607399999998,0.21296973600000002,3.9793,5.175,6.1535,214.0,68.0,3e-06
1038,1048.0,0.264314667,0.263392995,6.6491,7.5721,11.2531,262.0,79.0,3e-06
1039,1049.0,0.233156444,0.232052094,5.8904,2.0415,8.476,266.0,83.0,3e-06
